# campaign: 2024-09-08 00:00:00+00:00 2024-09-30 00:00:00+00:00
# time[s] T_n8cm[˚C] T_n15cm[˚C] T_n23cm[˚C] theta_n8cm[-] theta_n23cm[-]
0.0 17.208333333333332 17.541666666666668 16.916666666666668 0.11572998982050042 0.09937614312983539
600.0 17.194444444444446 17.52777777777778 16.916666666666668 0.11567815169248712 0.09937614312983539
1200.0 17.180555555555554 17.51388888888889 16.916666666666668 0.11562631356447377 0.09937614312983539
1800.0 17.166666666666668 17.5 16.916666666666668 0.11557447543646042 0.09937614312983539
2400.0 17.159722222222225 17.493055555555557 16.916666666666668 0.11554855637245376 0.09937614312983539
3000.0 17.152777777777775 17.48611111111111 16.916666666666668 0.1155226373084471 0.09937614312983539
3600.0 17.145833333333332 17.479166666666668 16.916666666666668 0.11549671824444042 0.09937614312983539
4200.0 17.131944444444446 17.472222222222225 16.916666666666668 0.1154448801164271 0.09935108304538316
4800.0 17.118055555555554 17.465277777777775 16.916666666666668 0.11539304198841376 0.09932602296093096
5400.0 17.104166666666668 17.458333333333332 16.916666666666668 0.11534120386040043 0.09930096287647873
6000.0 17.09027777777778 17.4375 16.916666666666668 0.11534120386040043 0.09930096287647873
6600.0 17.07638888888889 17.416666666666668 16.916666666666668 0.11534120386040043 0.09930096287647873
7200.0 17.0625 17.395833333333332 16.916666666666668 0.11534120386040043 0.09930096287647873
7800.0 17.04861111111111 17.38888888888889 16.916666666666668 0.11528936573238709 0.09930096287647873
8400.0 17.03472222222222 17.381944444444443 16.916666666666668 0.11523752760437377 0.09930096287647873
9000.0 17.020833333333332 17.375 16.916666666666668 0.11518568947636043 0.09930096287647873
9600.0 17.006944444444446 17.368055555555557 16.916666666666668 0.11515977041235377 0.09930096287647873
10200.0 16.993055555555554 17.36111111111111 16.916666666666668 0.11513385134834708 0.09930096287647873
10800.0 16.979166666666668 17.354166666666668 16.916666666666668 0.11510793228434042 0.09930096287647873
11400.0 16.96527777777778 17.333333333333332 16.916666666666668 0.11510793228434042 0.09930096287647873
12000.0 16.95138888888889 17.3125 16.916666666666668 0.11510793228434042 0.09930096287647873
12600.0 16.9375 17.291666666666668 16.916666666666668 0.11510793228434042 0.09930096287647873
13200.0 16.92361111111111 17.284722222222225 16.90277777777778 0.11508201322033378 0.09927590279202651
13800.0 16.90972222222222 17.277777777777775 16.88888888888889 0.1150560941563271 0.09925084270757428
14400.0 16.895833333333332 17.270833333333332 16.875 0.11503017509232043 0.09922578262312205
15000.0 16.881944444444446 17.25 16.86111111111111 0.11497833696430709 0.09922578262312205
15600.0 16.868055555555554 17.229166666666668 16.84722222222222 0.11492649883629376 0.09922578262312205
16200.0 16.854166666666668 17.208333333333332 16.833333333333332 0.11487466070828044 0.09922578262312205
16800.0 16.84027777777778 17.194444444444446 16.82638888888889 0.11484874164427376 0.09922578262312205
17400.0 16.82638888888889 17.180555555555554 16.819444444444443 0.1148228225802671 0.09922578262312205
18000.0 16.8125 17.166666666666668 16.8125 0.11479690351626044 0.09922578262312205
18600.0 16.791666666666668 17.159722222222225 16.805555555555557 0.11477098445225377 0.09917566245421762
19200.0 16.770833333333332 17.152777777777775 16.79861111111111 0.1147450653882471 0.09912554228531317
19800.0 16.75 17.145833333333332 16.791666666666668 0.11471914632424045 0.09907542211640874
20400.0 16.73611111111111 17.125 16.791666666666668 0.11471914632424045 0.09907542211640874
21000.0 16.72222222222222 17.104166666666668 16.791666666666668 0.11471914632424045 0.09907542211640874
21600.0 16.708333333333332 17.083333333333332 16.791666666666668 0.11471914632424045 0.09907542211640874
22200.0 16.708333333333332 17.069444444444446 16.791666666666668 0.1147450653882471 0.09907542211640874
22800.0 16.708333333333332 17.055555555555554 16.791666666666668 0.11477098445225377 0.09907542211640874
23400.0 16.708333333333332 17.041666666666668 16.791666666666668 0.11479690351626044 0.09907542211640874
24000.0 16.694444444444446 17.041666666666668 16.784722222222225 0.11484874164427376 0.09907542211640874
24600.0 16.680555555555554 17.041666666666668 16.777777777777775 0.11490057977228711 0.09907542211640874
25200.0 16.666666666666668 17.041666666666668 16.770833333333332 0.11495241790030043 0.09907542211640874
25800.0 16.666666666666668 17.034722222222225 16.76388888888889 0.11500425602831377 0.09907542211640874
26400.0 16.666666666666668 17.027777777777775 16.756944444444443 0.1150560941563271 0.09907542211640874
27000.0 16.666666666666668 17.020833333333332 16.75 0.11510793228434042 0.09907542211640874
27600.0 16.666666666666668 17.020833333333332 16.73611111111111 0.11515977041235376 0.09907542211640874
28200.0 16.666666666666668 17.020833333333332 16.72222222222222 0.1152116085403671 0.09907542211640874
28800.0 16.666666666666668 17.020833333333332 16.708333333333332 0.11526344666838044 0.09907542211640874
29400.0 16.67361111111111 17.020833333333332 16.708333333333332 0.11531528479639375 0.0990253019475043
30000.0 16.680555555555557 17.020833333333332 16.708333333333332 0.1153671229244071 0.09897518177859983
30600.0 16.6875 17.020833333333332 16.708333333333332 0.11541896105242043 0.0989250616096954
31200.0 16.694444444444443 17.020833333333332 16.694444444444446 0.11549671824444042 0.09890000152524318
31800.0 16.70138888888889 17.020833333333332 16.680555555555554 0.11557447543646043 0.09887494144079095
32400.0 16.708333333333332 17.020833333333332 16.666666666666668 0.11565223262848041 0.09884988135633872
33000.0 16.722222222222225 17.027777777777775 16.666666666666668 0.11570407075649375 0.09884988135633872
33600.0 16.73611111111111 17.034722222222225 16.666666666666668 0.11575590888450708 0.09884988135633872
34200.0 16.75 17.041666666666668 16.666666666666668 0.11580774701252039 0.09884988135633872
34800.0 16.770833333333332 17.0625 16.666666666666668 0.11583366607652708 0.09884988135633872
35400.0 16.791666666666668 17.083333333333332 16.666666666666668 0.11585958514053375 0.09884988135633872
36000.0 16.8125 17.104166666666668 16.666666666666668 0.11588550420454043 0.09884988135633872
36600.0 16.82638888888889 17.11111111111111 16.666666666666668 0.1159891804605671 0.09879976118743429
37200.0 16.84027777777778 17.118055555555557 16.666666666666668 0.11609285671659379 0.09874964101852984
37800.0 16.854166666666668 17.125 16.666666666666668 0.11619653297262045 0.09869952084962541
38400.0 16.881944444444443 17.15277777777778 16.666666666666668 0.11624837110063375 0.09869952084962541
39000.0 16.909722222222225 17.180555555555554 16.666666666666668 0.1163002092286471 0.09869952084962541
39600.0 16.9375 17.208333333333332 16.666666666666668 0.11635204735666042 0.09869952084962541
40200.0 16.965277777777775 17.229166666666668 16.666666666666668 0.11640388548467374 0.09869952084962541
40800.0 16.993055555555557 17.25 16.666666666666668 0.11645572361268708 0.09869952084962541
41400.0 17.020833333333332 17.270833333333332 16.666666666666668 0.11650756174070039 0.09869952084962541
42000.0 17.041666666666668 17.29861111111111 16.67361111111111 0.11655939986871372 0.09869952084962541
42600.0 17.0625 17.32638888888889 16.680555555555557 0.11661123799672707 0.09869952084962541
43200.0 17.083333333333332 17.354166666666668 16.6875 0.1166630761247404 0.09869952084962541
43800.0 17.11111111111111 17.375 16.70138888888889 0.11668899518874709 0.09867446076517318
44400.0 17.13888888888889 17.395833333333332 16.71527777777778 0.11671491425275375 0.09864940068072096
45000.0 17.166666666666668 17.416666666666668 16.729166666666668 0.11674083331676044 0.09862434059626873
45600.0 17.20138888888889 17.444444444444443 16.75 0.1167667523807671 0.09862434059626873
46200.0 17.23611111111111 17.472222222222225 16.770833333333332 0.11679267144477377 0.09862434059626873
46800.0 17.270833333333332 17.5 16.791666666666668 0.11681859050878045 0.09862434059626873
47400.0 17.277777777777775 17.51388888888889 16.791666666666668 0.11681859050878045 0.0985992805118165
48000.0 17.284722222222225 17.52777777777778 16.791666666666668 0.11681859050878042 0.09857422042736429
48600.0 17.291666666666668 17.541666666666668 16.791666666666668 0.11681859050878045 0.09854916034291206
49200.0 17.333333333333332 17.57638888888889 16.791666666666668 0.11681859050878045 0.09854916034291206
49800.0 17.375 17.61111111111111 16.791666666666668 0.11681859050878045 0.09854916034291206
50400.0 17.416666666666668 17.645833333333332 16.791666666666668 0.11681859050878045 0.09854916034291206
51000.0 17.430555555555554 17.652777777777775 16.79861111111111 0.1167667523807671 0.09852410025845985
51600.0 17.444444444444446 17.659722222222225 16.805555555555557 0.11671491425275375 0.09849904017400762
52200.0 17.458333333333332 17.666666666666668 16.8125 0.1166630761247404 0.0984739800895554
52800.0 17.479166666666668 17.70138888888889 16.82638888888889 0.1166630761247404 0.09849904017400762
53400.0 17.5 17.73611111111111 16.84027777777778 0.1166630761247404 0.09852410025845985
54000.0 17.520833333333332 17.770833333333332 16.854166666666668 0.1166630761247404 0.09854916034291206
54600.0 17.527777777777775 17.777777777777775 16.86111111111111 0.1166630761247404 0.09854916034291206
55200.0 17.534722222222225 17.784722222222225 16.868055555555557 0.1166630761247404 0.09854916034291206
55800.0 17.541666666666668 17.791666666666668 16.875 0.1166630761247404 0.09854916034291206
56400.0 17.555555555555557 17.79861111111111 16.88888888888889 0.11658531893272041 0.09854916034291206
57000.0 17.569444444444443 17.805555555555557 16.90277777777778 0.11650756174070041 0.09854916034291206
57600.0 17.583333333333332 17.8125 16.916666666666668 0.11642980454868042 0.09854916034291206
58200.0 17.590277777777775 17.833333333333332 16.92361111111111 0.11642980454868042 0.09854916034291206
58800.0 17.597222222222225 17.854166666666668 16.930555555555557 0.11642980454868042 0.09854916034291206
59400.0 17.604166666666668 17.875 16.9375 0.11642980454868042 0.09854916034291206
60000.0 17.618055555555554 17.88888888888889 16.944444444444443 0.11637796642066711 0.09854916034291206
60600.0 17.631944444444446 17.90277777777778 16.95138888888889 0.11632612829265376 0.09854916034291206
61200.0 17.645833333333332 17.916666666666668 16.958333333333332 0.11627429016464043 0.09854916034291206
61800.0 17.645833333333332 17.916666666666668 16.958333333333332 0.11619653297262045 0.09857422042736429
62400.0 17.645833333333332 17.916666666666668 16.958333333333332 0.11611877578060043 0.0985992805118165
63000.0 17.645833333333332 17.916666666666668 16.958333333333332 0.11604101858858044 0.09862434059626873
63600.0 17.645833333333332 17.916666666666668 16.97222222222222 0.11601509952457378 0.09862434059626873
64200.0 17.645833333333332 17.916666666666668 16.98611111111111 0.11598918046056711 0.09862434059626873
64800.0 17.645833333333332 17.916666666666668 17.0 0.11596326139656044 0.09862434059626873
65400.0 17.63888888888889 17.916666666666668 17.006944444444443 0.11593734233255377 0.09864940068072096
66000.0 17.631944444444443 17.916666666666668 17.01388888888889 0.1159114232685471 0.09867446076517318
66600.0 17.625 17.916666666666668 17.020833333333332 0.11588550420454043 0.09869952084962541
67200.0 17.618055555555557 17.916666666666668 17.027777777777775 0.11588550420454043 0.09869952084962541
67800.0 17.61111111111111 17.916666666666668 17.034722222222225 0.11588550420454043 0.09869952084962541
68400.0 17.604166666666668 17.916666666666668 17.041666666666668 0.11588550420454043 0.09869952084962541
69000.0 17.597222222222225 17.916666666666668 17.041666666666668 0.11585958514053375 0.09869952084962541
69600.0 17.590277777777775 17.916666666666668 17.041666666666668 0.11583366607652708 0.09869952084962541
70200.0 17.583333333333332 17.916666666666668 17.041666666666668 0.11580774701252039 0.09869952084962541
70800.0 17.583333333333332 17.916666666666668 17.041666666666668 0.11567815169248707 0.09869952084962541
71400.0 17.583333333333332 17.916666666666668 17.041666666666668 0.11554855637245372 0.09869952084962541
72000.0 17.583333333333332 17.916666666666668 17.041666666666668 0.1154189610524204 0.09869952084962541
72600.0 17.583333333333332 17.916666666666668 17.04861111111111 0.11539304198841373 0.09867446076517318
73200.0 17.583333333333332 17.916666666666668 17.055555555555557 0.11536712292440705 0.09864940068072096
73800.0 17.583333333333332 17.916666666666668 17.0625 0.11534120386040041 0.09862434059626873
74400.0 17.583333333333332 17.909722222222225 17.0625 0.11531528479639375 0.09862434059626873
75000.0 17.583333333333332 17.902777777777775 17.0625 0.11528936573238709 0.09862434059626873
75600.0 17.583333333333332 17.895833333333332 17.0625 0.11526344666838044 0.09862434059626873
76200.0 17.583333333333332 17.88888888888889 17.0625 0.11523752760437378 0.09862434059626873
76800.0 17.583333333333332 17.881944444444443 17.0625 0.11521160854036709 0.09862434059626873
77400.0 17.583333333333332 17.875 17.0625 0.11518568947636043 0.09862434059626873
78000.0 17.57638888888889 17.875 17.0625 0.11515977041235377 0.09862434059626873
78600.0 17.569444444444443 17.875 17.0625 0.11513385134834708 0.09862434059626873
79200.0 17.5625 17.875 17.0625 0.11510793228434042 0.09862434059626873
79800.0 17.555555555555557 17.868055555555557 17.0625 0.11508201322033378 0.09862434059626873
80400.0 17.54861111111111 17.86111111111111 17.0625 0.1150560941563271 0.09862434059626873
81000.0 17.541666666666668 17.854166666666668 17.0625 0.11503017509232043 0.09862434059626873
81600.0 17.52777777777778 17.847222222222225 17.0625 0.11500425602831377 0.09862434059626873
82200.0 17.51388888888889 17.840277777777775 17.0625 0.1149783369643071 0.09862434059626873
82800.0 17.5 17.833333333333332 17.0625 0.11495241790030042 0.09862434059626873
83400.0 17.5 17.833333333333332 17.069444444444443 0.11495241790030042 0.09862434059626873
84000.0 17.5 17.833333333333332 17.07638888888889 0.11495241790030042 0.09862434059626873
84600.0 17.5 17.833333333333332 17.083333333333332 0.11495241790030042 0.09862434059626873
85200.0 17.48611111111111 17.82638888888889 17.07638888888889 0.11487466070828045 0.09862434059626873
85800.0 17.47222222222222 17.819444444444443 17.069444444444443 0.11479690351626042 0.09862434059626873
86400.0 17.458333333333332 17.8125 17.0625 0.11471914632424042 0.09862434059626873
87000.0 17.45138888888889 17.805555555555557 17.0625 0.11471914632424042 0.09862434059626873
87600.0 17.444444444444443 17.79861111111111 17.0625 0.11471914632424042 0.09862434059626873
88200.0 17.4375 17.791666666666668 17.0625 0.11471914632424042 0.09862434059626873
88800.0 17.430555555555557 17.784722222222225 17.0625 0.11469322726023375 0.09862434059626873
89400.0 17.42361111111111 17.777777777777775 17.0625 0.1146673081962271 0.09862434059626873
90000.0 17.416666666666668 17.770833333333332 17.0625 0.11464138913222044 0.09862434059626873
90600.0 17.416666666666668 17.756944444444446 17.055555555555557 0.11461547006821377 0.09862434059626873
91200.0 17.416666666666668 17.743055555555554 17.04861111111111 0.11458955100420709 0.09862434059626873
91800.0 17.416666666666668 17.729166666666668 17.041666666666668 0.11456363194020043 0.09862434059626873
92400.0 17.40277777777778 17.722222222222225 17.04861111111111 0.11451179381218711 0.09862434059626873
93000.0 17.38888888888889 17.715277777777775 17.055555555555557 0.11445995568417376 0.09862434059626873
93600.0 17.375 17.708333333333332 17.0625 0.11440811755616043 0.09862434059626873
94200.0 17.368055555555557 17.708333333333332 17.055555555555557 0.11438219849215377 0.0985992805118165
94800.0 17.36111111111111 17.708333333333332 17.04861111111111 0.11435627942814709 0.09857422042736429
95400.0 17.354166666666668 17.708333333333332 17.041666666666668 0.11433036036414042 0.09854916034291206
96000.0 17.34027777777778 17.694444444444446 17.041666666666668 0.11430444130013377 0.09857422042736429
96600.0 17.32638888888889 17.680555555555554 17.041666666666668 0.1142785222361271 0.0985992805118165
97200.0 17.3125 17.666666666666668 17.041666666666668 0.11425260317212042 0.09862434059626873
97800.0 17.305555555555557 17.65277777777778 17.034722222222225 0.11425260317212042 0.09872458093407761
98400.0 17.29861111111111 17.63888888888889 17.027777777777775 0.11425260317212042 0.09882482127188652
99000.0 17.291666666666668 17.625 17.020833333333332 0.11425260317212042 0.0989250616096954
99600.0 17.284722222222225 17.618055555555557 17.027777777777775 0.11425260317212042 0.09935108304538316
100200.0 17.277777777777775 17.61111111111111 17.034722222222225 0.11425260317212044 0.09977710448107095
100800.0 17.270833333333332 17.604166666666668 17.041666666666668 0.11425260317212044 0.10020312591675873
101400.0 17.256944444444446 17.597222222222225 17.041666666666668 0.11422668410811376 0.10075444777470761
102000.0 17.243055555555554 17.590277777777775 17.041666666666668 0.1142007650441071 0.10130576963265651
102600.0 17.229166666666668 17.583333333333332 17.041666666666668 0.11417484598010043 0.1018570914906054
103200.0 17.208333333333332 17.57638888888889 17.041666666666668 0.11702594302083376 0.1262405536626176
103800.0 17.1875 17.569444444444443 17.041666666666668 0.11987704006156709 0.15062401583462978
104400.0 17.166666666666668 17.5625 17.041666666666668 0.12272813710230042 0.175007478006642
105000.0 17.166666666666668 17.54861111111111 17.041666666666668 0.12233935114220042 0.16177575341586867
105600.0 17.166666666666668 17.53472222222222 17.041666666666668 0.12195056518210041 0.14854402882509532
106200.0 17.166666666666668 17.520833333333332 17.041666666666668 0.12156177922200044 0.135312304234322
106800.0 17.145833333333332 17.5 17.034722222222225 0.12138034577395378 0.140048660195792
107400.0 17.125 17.479166666666668 17.027777777777775 0.12119891232590708 0.144785016157262
108000.0 17.104166666666668 17.458333333333332 17.020833333333332 0.12101747887786042 0.14952137211873198
108600.0 17.083333333333332 17.444444444444443 17.020833333333332 0.12257262271826057 0.1726267699836809
109200.0 17.0625 17.430555555555557 17.020833333333332 0.12412776655866065 0.1957321678486298
109800.0 17.041666666666668 17.416666666666668 17.020833333333332 0.12568291039906077 0.21883756571357868
110400.0 16.993055555555554 17.368055555555557 17.0 0.124723905030814 0.2166322782817831
111000.0 16.944444444444446 17.319444444444443 16.979166666666668 0.12376489966256721 0.21442699084998754
111600.0 16.895833333333332 17.270833333333332 16.958333333333332 0.12280589429432043 0.212221703418192
112200.0 16.868055555555557 17.25 16.944444444444446 0.12379081872657378 0.20217260955285088
112800.0 16.840277777777775 17.229166666666668 16.930555555555554 0.1247757431588271 0.19212351568750977
113400.0 16.8125 17.208333333333332 16.916666666666668 0.12576066759108043 0.18207442182216868
114000.0 16.770833333333332 17.180555555555557 16.916666666666668 0.12581250571909378 0.17761372678967313
114600.0 16.729166666666668 17.152777777777775 16.916666666666668 0.1258643438471071 0.17315303175717756
115200.0 16.6875 17.125 16.916666666666668 0.12591618197512042 0.168692336724682
115800.0 16.666666666666668 17.097222222222225 16.909722222222225 0.12622721074320042 0.16746439258652313
116400.0 16.645833333333332 17.069444444444443 16.902777777777775 0.12653823951128043 0.16623644844836424
117000.0 16.625 17.041666666666668 16.895833333333332 0.12684926827936044 0.16500850431020533
117600.0 16.590277777777775 17.01388888888889 16.875 0.1271084589194271 0.1642817618610909
118200.0 16.555555555555557 16.98611111111111 16.854166666666668 0.12736764955949376 0.16355501941197645
118800.0 16.520833333333332 16.958333333333332 16.833333333333332 0.12762684019956042 0.162828276962862
119400.0 16.5 16.9375 16.819444444444446 0.12783419271161378 0.162377195442722
