# campaign: 2024-09-08 00:00:00+00:00 2024-09-30 00:00:00+00:00
# time[s] T_15cm[˚C]
0.0 17.520833333333332
600.0 17.47222222222222
1200.0 17.42361111111111
1800.0 17.375
2400.0 17.208333333333332
3000.0 17.041666666666668
3600.0 16.875
4200.0 16.833333333333332
4800.0 16.791666666666668
5400.0 16.75
6000.0 16.631944444444443
6600.0 16.51388888888889
7200.0 16.395833333333332
7800.0 16.256944444444446
8400.0 16.118055555555554
9000.0 15.979166666666666
9600.0 15.965277777777779
10200.0 15.951388888888888
10800.0 15.9375
11400.0 15.833333333333334
12000.0 15.729166666666666
12600.0 15.625
13200.0 15.465277777777779
13800.0 15.305555555555555
14400.0 15.145833333333334
15000.0 15.020833333333334
15600.0 14.895833333333334
16200.0 14.770833333333334
16800.0 14.701388888888888
17400.0 14.631944444444445
18000.0 14.5625
18600.0 14.583333333333334
19200.0 14.604166666666666
19800.0 14.625
20400.0 14.847222222222223
21000.0 15.069444444444443
21600.0 15.291666666666666
22200.0 15.708333333333334
22800.0 16.125
23400.0 16.541666666666668
24000.0 16.875
24600.0 17.208333333333332
25200.0 17.541666666666668
25800.0 18.034722222222225
26400.0 18.527777777777775
27000.0 19.020833333333332
27600.0 19.42361111111111
28200.0 19.82638888888889
28800.0 20.229166666666668
29400.0 20.659722222222225
30000.0 21.090277777777775
30600.0 21.520833333333332
31200.0 21.819444444444443
31800.0 22.118055555555557
32400.0 22.416666666666668
33000.0 22.743055555555557
33600.0 23.069444444444443
34200.0 23.395833333333332
34800.0 23.729166666666668
35400.0 24.0625
36000.0 24.395833333333332
36600.0 24.8125
37200.0 25.229166666666668
37800.0 25.645833333333332
38400.0 25.930555555555557
39000.0 26.215277777777775
39600.0 26.5
40200.0 26.645833333333332
40800.0 26.791666666666668
41400.0 26.9375
42000.0 27.0
42600.0 27.0625
43200.0 27.125
43800.0 27.277777777777782
44400.0 27.430555555555554
45000.0 27.583333333333332
45600.0 27.701388888888886
46200.0 27.819444444444446
46800.0 27.9375
47400.0 28.041666666666668
48000.0 28.145833333333332
48600.0 28.25
49200.0 27.98611111111111
49800.0 27.722222222222225
50400.0 27.458333333333332
51000.0 27.361111111111114
51600.0 27.263888888888886
52200.0 27.166666666666668
52800.0 26.979166666666668
53400.0 26.791666666666668
54000.0 26.604166666666668
54600.0 26.4375
55200.0 26.270833333333332
55800.0 26.104166666666668
56400.0 25.98611111111111
57000.0 25.868055555555557
57600.0 25.75
58200.0 25.513888888888886
58800.0 25.277777777777782
59400.0 25.041666666666668
60000.0 24.722222222222225
60600.0 24.402777777777775
61200.0 24.083333333333332
61800.0 23.847222222222218
62400.0 23.611111111111114
63000.0 23.375
63600.0 23.17361111111111
64200.0 22.972222222222225
64800.0 22.770833333333332
65400.0 22.784722222222218
66000.0 22.798611111111114
66600.0 22.8125
67200.0 22.784722222222225
67800.0 22.756944444444443
68400.0 22.729166666666668
69000.0 22.6875
69600.0 22.645833333333332
70200.0 22.604166666666668
70800.0 22.555555555555554
71400.0 22.506944444444446
72000.0 22.458333333333332
72600.0 22.368055555555557
73200.0 22.277777777777775
73800.0 22.1875
74400.0 22.083333333333332
75000.0 21.979166666666668
75600.0 21.875
76200.0 21.79861111111111
76800.0 21.722222222222225
77400.0 21.645833333333332
78000.0 21.48611111111111
78600.0 21.32638888888889
79200.0 21.166666666666668
79800.0 21.07638888888889
80400.0 20.98611111111111
81000.0 20.895833333333332
81600.0 20.840277777777775
82200.0 20.784722222222225
82800.0 20.729166666666668
83400.0 20.569444444444443
84000.0 20.409722222222225
84600.0 20.25
85200.0 19.965277777777775
85800.0 19.680555555555557
86400.0 19.395833333333332
87000.0 19.527777777777775
87600.0 19.659722222222225
88200.0 19.791666666666668
88800.0 19.45138888888889
89400.0 19.11111111111111
90000.0 18.770833333333332
90600.0 18.78472222222222
91200.0 18.79861111111111
91800.0 18.8125
92400.0 18.4375
93000.0 18.0625
93600.0 17.6875
94200.0 17.555555555555557
94800.0 17.42361111111111
95400.0 17.291666666666668
96000.0 17.27777777777778
96600.0 17.26388888888889
97200.0 17.25
97800.0 17.208333333333332
98400.0 17.166666666666668
99000.0 17.125
99600.0 17.0
100200.0 16.875
100800.0 16.75
101400.0 16.590277777777775
102000.0 16.430555555555557
102600.0 16.270833333333332
103200.0 16.22222222222222
103800.0 16.17361111111111
104400.0 16.125
105000.0 16.166666666666668
105600.0 16.208333333333332
106200.0 16.25
106800.0 16.23611111111111
107400.0 16.222222222222225
108000.0 16.208333333333332
108600.0 15.638888888888888
109200.0 15.069444444444445
109800.0 14.5
110400.0 14.145833333333334
111000.0 13.791666666666666
111600.0 13.4375
112200.0 13.1875
112800.0 12.9375
113400.0 12.6875
114000.0 12.694444444444445
114600.0 12.701388888888888
115200.0 12.708333333333334
115800.0 12.729166666666666
116400.0 12.75
117000.0 12.770833333333334
117600.0 12.847222222222223
118200.0 12.923611111111109
118800.0 13.0
119400.0 13.138888888888888
120000.0 13.277777777777779
120600.0 13.416666666666666
121200.0 13.791666666666666
121800.0 14.166666666666666
122400.0 14.541666666666666
123000.0 14.527777777777779
123600.0 14.513888888888888
124200.0 14.5
124800.0 14.583333333333334
125400.0 14.666666666666666
126000.0 14.75
126600.0 14.805555555555555
127200.0 14.861111111111112
127800.0 14.916666666666666
128400.0 15.0625
129000.0 15.208333333333334
129600.0 15.354166666666666
130200.0 15.333333333333334
130800.0 15.3125
131400.0 15.291666666666666
132000.0 15.347222222222221
132600.0 15.402777777777779
133200.0 15.458333333333334
133800.0 15.756944444444443
134400.0 16.055555555555554
135000.0 16.354166666666668
135600.0 16.3125
136200.0 16.270833333333332
136800.0 16.229166666666668
137400.0 16.284722222222225
138000.0 16.340277777777775
138600.0 16.395833333333332
139200.0 16.34722222222222
139800.0 16.29861111111111
140400.0 16.25
141000.0 16.20138888888889
141600.0 16.15277777777778
142200.0 16.104166666666668
142800.0 16.118055555555554
143400.0 16.131944444444446
144000.0 16.145833333333332
144600.0 16.01388888888889
145200.0 15.881944444444445
145800.0 15.75
146400.0 15.590277777777779
147000.0 15.430555555555555
147600.0 15.270833333333334
148200.0 15.222222222222223
148800.0 15.173611111111109
149400.0 15.125
150000.0 15.083333333333334
150600.0 15.041666666666666
151200.0 15.0
151800.0 14.895833333333334
152400.0 14.791666666666666
153000.0 14.6875
153600.0 14.583333333333334
154200.0 14.479166666666666
154800.0 14.375
155400.0 14.263888888888891
156000.0 14.152777777777777
156600.0 14.041666666666666
157200.0 13.944444444444445
157800.0 13.847222222222221
158400.0 13.75
159000.0 13.666666666666666
159600.0 13.583333333333334
160200.0 13.5
160800.0 13.458333333333334
161400.0 13.416666666666666
162000.0 13.375
162600.0 13.326388888888891
163200.0 13.277777777777777
163800.0 13.229166666666666
164400.0 13.194444444444445
165000.0 13.159722222222221
165600.0 13.125
166200.0 13.166666666666666
166800.0 13.208333333333334
167400.0 13.25
168000.0 13.208333333333334
168600.0 13.166666666666666
169200.0 13.125
169800.0 13.208333333333334
170400.0 13.291666666666666
171000.0 13.375
171600.0 13.361111111111109
172200.0 13.347222222222223
172800.0 13.333333333333334
173400.0 13.305555555555555
174000.0 13.277777777777779
174600.0 13.25
175200.0 13.215277777777779
175800.0 13.180555555555555
176400.0 13.145833333333334
177000.0 13.159722222222223
177600.0 13.173611111111109
178200.0 13.1875
178800.0 13.166666666666666
179400.0 13.145833333333334
180000.0 13.125
180600.0 13.083333333333334
181200.0 13.041666666666666
181800.0 13.0
182400.0 12.916666666666666
183000.0 12.833333333333334
183600.0 12.75
184200.0 12.75
184800.0 12.75
185400.0 12.75
186000.0 12.673611111111109
186600.0 12.597222222222223
187200.0 12.520833333333334
187800.0 12.402777777777779
188400.0 12.284722222222221
189000.0 12.166666666666666
189600.0 12.180555555555555
190200.0 12.194444444444445
190800.0 12.208333333333334
191400.0 12.430555555555557
192000.0 12.652777777777777
192600.0 12.875
193200.0 13.083333333333334
193800.0 13.291666666666666
194400.0 13.5
195000.0 13.576388888888891
195600.0 13.652777777777777
196200.0 13.729166666666666
196800.0 13.826388888888888
197400.0 13.923611111111112
198000.0 14.020833333333334
198600.0 14.222222222222223
199200.0 14.423611111111109
199800.0 14.625
200400.0 14.819444444444445
201000.0 15.013888888888888
201600.0 15.208333333333334
202200.0 15.152777777777779
202800.0 15.097222222222221
203400.0 15.041666666666666
204000.0 15.215277777777777
204600.0 15.388888888888891
205200.0 15.5625
205800.0 15.618055555555555
206400.0 15.673611111111112
207000.0 15.729166666666666
207600.0 15.652777777777777
208200.0 15.576388888888891
208800.0 15.5
209400.0 15.75
210000.0 16.0
210600.0 16.25
211200.0 16.305555555555554
211800.0 16.36111111111111
212400.0 16.416666666666668
213000.0 16.604166666666668
213600.0 16.791666666666668
214200.0 16.979166666666668
214800.0 16.895833333333332
215400.0 16.8125
216000.0 16.729166666666668
216600.0 16.70138888888889
217200.0 16.67361111111111
217800.0 16.645833333333332
218400.0 16.930555555555557
219000.0 17.215277777777775
219600.0 17.5
220200.0 17.5625
220800.0 17.625
221400.0 17.6875
222000.0 17.541666666666668
222600.0 17.395833333333332
223200.0 17.25
223800.0 17.347222222222225
224400.0 17.444444444444443
225000.0 17.541666666666668
225600.0 17.42361111111111
226200.0 17.305555555555554
226800.0 17.1875
227400.0 16.958333333333332
228000.0 16.729166666666668
228600.0 16.5
229200.0 16.506944444444443
229800.0 16.51388888888889
230400.0 16.520833333333332
231000.0 16.222222222222225
231600.0 15.923611111111112
232200.0 15.625
232800.0 15.583333333333334
233400.0 15.541666666666666
234000.0 15.5
234600.0 15.222222222222221
235200.0 14.944444444444445
235800.0 14.666666666666666
236400.0 14.347222222222221
237000.0 14.027777777777779
237600.0 13.708333333333334
238200.0 13.493055555555555
238800.0 13.277777777777779
239400.0 13.0625
240000.0 12.840277777777779
240600.0 12.618055555555555
241200.0 12.395833333333334
241800.0 12.340277777777779
242400.0 12.284722222222221
243000.0 12.229166666666666
243600.0 12.118055555555557
244200.0 12.006944444444443
244800.0 11.895833333333334
245400.0 11.763888888888888
246000.0 11.631944444444445
246600.0 11.5
247200.0 11.465277777777779
247800.0 11.430555555555555
248400.0 11.395833333333334
249000.0 11.305555555555555
249600.0 11.215277777777779
250200.0 11.125
250800.0 10.923611111111109
251400.0 10.722222222222223
252000.0 10.520833333333334
252600.0 10.340277777777779
253200.0 10.159722222222221
253800.0 9.979166666666666
254400.0 10.083333333333334
255000.0 10.1875
255600.0 10.291666666666666
256200.0 10.6875
256800.0 11.083333333333334
257400.0 11.479166666666666
258000.0 11.569444444444445
258600.0 11.659722222222221
259200.0 11.75
259800.0 11.763888888888891
260400.0 11.777777777777777
261000.0 11.791666666666666
261600.0 11.756944444444445
262200.0 11.722222222222221
262800.0 11.6875
263400.0 11.701388888888891
264000.0 11.715277777777777
264600.0 11.729166666666666
265200.0 11.673611111111112
265800.0 11.618055555555555
266400.0 11.5625
267000.0 11.583333333333334
267600.0 11.604166666666666
268200.0 11.625
268800.0 11.583333333333334
269400.0 11.541666666666666
270000.0 11.5
270600.0 11.541666666666666
271200.0 11.583333333333334
271800.0 11.625
272400.0 11.5625
273000.0 11.5
273600.0 11.4375
274200.0 11.416666666666666
274800.0 11.395833333333334
275400.0 11.375
276000.0 11.291666666666666
276600.0 11.208333333333334
277200.0 11.125
277800.0 11.173611111111109
278400.0 11.222222222222223
279000.0 11.270833333333334
279600.0 11.430555555555555
280200.0 11.590277777777779
280800.0 11.75
281400.0 11.875
282000.0 12.0
282600.0 12.125
283200.0 12.25
283800.0 12.375
284400.0 12.5
285000.0 12.597222222222221
285600.0 12.694444444444445
286200.0 12.791666666666666
286800.0 13.118055555555557
287400.0 13.444444444444443
288000.0 13.770833333333334
288600.0 13.784722222222223
289200.0 13.798611111111109
289800.0 13.8125
290400.0 13.868055555555555
291000.0 13.923611111111112
291600.0 13.979166666666666
292200.0 14.013888888888888
292800.0 14.048611111111112
293400.0 14.083333333333334
294000.0 14.1875
294600.0 14.291666666666666
295200.0 14.395833333333334
295800.0 14.548611111111112
296400.0 14.701388888888888
297000.0 14.854166666666666
297600.0 14.888888888888888
298200.0 14.923611111111112
298800.0 14.958333333333334
299400.0 14.923611111111112
300000.0 14.888888888888888
300600.0 14.854166666666666
301200.0 14.847222222222221
301800.0 14.840277777777779
302400.0 14.833333333333334
303000.0 14.826388888888888
303600.0 14.819444444444445
304200.0 14.8125
304800.0 14.701388888888891
305400.0 14.590277777777777
306000.0 14.479166666666666
306600.0 14.569444444444445
307200.0 14.659722222222221
307800.0 14.75
308400.0 14.756944444444445
309000.0 14.763888888888888
309600.0 14.770833333333334
310200.0 14.75
310800.0 14.729166666666666
311400.0 14.708333333333334
312000.0 14.638888888888888
312600.0 14.569444444444445
313200.0 14.5
313800.0 14.354166666666666
314400.0 14.208333333333334
315000.0 14.0625
315600.0 13.75
316200.0 13.4375
316800.0 13.125
317400.0 13.118055555555555
318000.0 13.111111111111112
318600.0 13.104166666666666
319200.0 12.986111111111112
319800.0 12.868055555555555
320400.0 12.75
321000.0 12.208333333333334
321600.0 11.666666666666666
322200.0 11.125
322800.0 10.923611111111112
323400.0 10.722222222222221
324000.0 10.520833333333334
324600.0 10.472222222222223
325200.0 10.42361111111111
325800.0 10.375
326400.0 10.25
327000.0 10.125
327600.0 10.0
328200.0 9.95138888888889
328800.0 9.902777777777777
329400.0 9.854166666666666
330000.0 9.833333333333334
330600.0 9.8125
331200.0 9.791666666666666
331800.0 9.75
332400.0 9.708333333333334
333000.0 9.666666666666666
333600.0 9.666666666666666
334200.0 9.666666666666666
334800.0 9.666666666666666
335400.0 9.645833333333334
336000.0 9.625
336600.0 9.604166666666666
337200.0 9.569444444444445
337800.0 9.534722222222221
338400.0 9.5
339000.0 9.42361111111111
339600.0 9.347222222222223
340200.0 9.270833333333334
340800.0 9.208333333333334
341400.0 9.145833333333334
342000.0 9.083333333333334
342600.0 9.013888888888888
343200.0 8.944444444444445
343800.0 8.875
344400.0 8.868055555555555
345000.0 8.861111111111112
345600.0 8.854166666666666
346200.0 8.833333333333334
346800.0 8.8125
347400.0 8.791666666666666
348000.0 8.791666666666666
348600.0 8.791666666666666
349200.0 8.791666666666666
349800.0 8.743055555555555
350400.0 8.694444444444445
351000.0 8.645833333333334
351600.0 8.597222222222223
352200.0 8.54861111111111
352800.0 8.5
353400.0 8.4375
354000.0 8.375
354600.0 8.3125
355200.0 8.229166666666666
355800.0 8.145833333333334
356400.0 8.0625
357000.0 8.020833333333334
357600.0 7.979166666666667
358200.0 7.9375
358800.0 7.8125
359400.0 7.6875
360000.0 7.5625
360600.0 7.527777777777778
361200.0 7.493055555555556
361800.0 7.458333333333333
362400.0 7.423611111111111
363000.0 7.388888888888889
363600.0 7.354166666666667
364200.0 7.409722222222222
364800.0 7.465277777777778
365400.0 7.520833333333333
366000.0 7.576388888888889
366600.0 7.631944444444444
367200.0 7.6875
367800.0 7.777777777777778
368400.0 7.868055555555556
369000.0 7.958333333333333
369600.0 8.020833333333334
370200.0 8.083333333333334
370800.0 8.145833333333334
371400.0 8.256944444444445
372000.0 8.368055555555555
372600.0 8.479166666666666
373200.0 8.604166666666666
373800.0 8.729166666666666
374400.0 8.854166666666666
375000.0 8.916666666666666
375600.0 8.979166666666666
376200.0 9.041666666666666
376800.0 9.166666666666666
377400.0 9.291666666666666
378000.0 9.416666666666666
378600.0 9.458333333333334
379200.0 9.5
379800.0 9.541666666666666
380400.0 9.763888888888888
381000.0 9.986111111111112
381600.0 10.208333333333334
382200.0 10.1875
382800.0 10.166666666666666
383400.0 10.145833333333334
384000.0 10.17361111111111
384600.0 10.20138888888889
385200.0 10.229166666666666
385800.0 10.180555555555555
386400.0 10.131944444444445
387000.0 10.083333333333334
387600.0 10.076388888888888
388200.0 10.069444444444445
388800.0 10.0625
389400.0 10.118055555555555
390000.0 10.173611111111112
390600.0 10.229166666666666
391200.0 10.201388888888888
391800.0 10.173611111111112
392400.0 10.145833333333334
393000.0 10.138888888888888
393600.0 10.131944444444445
394200.0 10.125
394800.0 10.208333333333334
395400.0 10.291666666666666
396000.0 10.375
396600.0 10.368055555555555
397200.0 10.361111111111112
397800.0 10.354166666666666
398400.0 10.159722222222221
399000.0 9.965277777777779
399600.0 9.770833333333334
400200.0 9.743055555555555
400800.0 9.715277777777777
401400.0 9.6875
402000.0 9.67361111111111
402600.0 9.659722222222223
403200.0 9.645833333333334
403800.0 9.569444444444445
404400.0 9.493055555555555
405000.0 9.416666666666666
405600.0 9.277777777777777
406200.0 9.13888888888889
406800.0 9.0
407400.0 8.875
408000.0 8.75
408600.0 8.625
409200.0 8.493055555555555
409800.0 8.361111111111112
410400.0 8.229166666666666
411000.0 8.159722222222221
411600.0 8.090277777777779
412200.0 8.020833333333334
412800.0 7.993055555555556
413400.0 7.965277777777778
414000.0 7.9375
414600.0 7.868055555555556
415200.0 7.798611111111111
415800.0 7.729166666666667
416400.0 7.701388888888889
417000.0 7.673611111111111
417600.0 7.645833333333333
418200.0 7.625
418800.0 7.604166666666667
419400.0 7.583333333333333
420000.0 7.527777777777778
420600.0 7.472222222222222
421200.0 7.416666666666667
421800.0 7.402777777777778
422400.0 7.388888888888889
423000.0 7.375
423600.0 7.375
424200.0 7.375
424800.0 7.375
425400.0 7.375
426000.0 7.375
426600.0 7.375
427200.0 7.381944444444444
427800.0 7.388888888888889
428400.0 7.395833333333333
429000.0 7.416666666666667
429600.0 7.4375
430200.0 7.458333333333333
430800.0 7.4305555555555545
431400.0 7.402777777777779
432000.0 7.375
432600.0 7.416666666666667
433200.0 7.458333333333333
433800.0 7.5
434400.0 7.541666666666667
435000.0 7.583333333333333
435600.0 7.625
436200.0 7.708333333333333
436800.0 7.791666666666667
437400.0 7.875
438000.0 7.902777777777779
438600.0 7.9305555555555545
439200.0 7.958333333333333
439800.0 7.958333333333333
440400.0 7.958333333333333
441000.0 7.958333333333333
441600.0 7.9305555555555545
442200.0 7.902777777777779
442800.0 7.875
443400.0 7.854166666666667
444000.0 7.833333333333333
444600.0 7.8125
445200.0 7.722222222222222
445800.0 7.631944444444444
446400.0 7.541666666666667
447000.0 7.472222222222222
447600.0 7.402777777777778
448200.0 7.333333333333333
448800.0 7.333333333333333
449400.0 7.333333333333333
450000.0 7.333333333333333
450600.0 7.3125
451200.0 7.291666666666667
451800.0 7.270833333333333
452400.0 7.284722222222221
453000.0 7.298611111111112
453600.0 7.3125
454200.0 7.340277777777778
454800.0 7.368055555555556
455400.0 7.395833333333333
456000.0 7.465277777777778
456600.0 7.534722222222222
457200.0 7.604166666666667
457800.0 7.6805555555555545
458400.0 7.7569444444444455
459000.0 7.833333333333333
459600.0 7.8055555555555545
460200.0 7.777777777777779
460800.0 7.75
461400.0 7.6875
462000.0 7.625
462600.0 7.5625
463200.0 7.541666666666667
463800.0 7.520833333333333
464400.0 7.5
465000.0 7.4375
465600.0 7.375
466200.0 7.3125
466800.0 7.270833333333333
467400.0 7.229166666666667
468000.0 7.1875
468600.0 7.027777777777778
469200.0 6.868055555555556
469800.0 6.708333333333333
470400.0 6.743055555555556
471000.0 6.777777777777778
471600.0 6.8125
472200.0 6.791666666666667
472800.0 6.770833333333333
473400.0 6.75
474000.0 6.777777777777779
474600.0 6.8055555555555545
475200.0 6.833333333333333
475800.0 6.861111111111111
476400.0 6.888888888888889
477000.0 6.916666666666667
477600.0 6.902777777777779
478200.0 6.888888888888888
478800.0 6.875
479400.0 6.840277777777778
480000.0 6.805555555555556
480600.0 6.770833333333333
481200.0 6.7569444444444455
481800.0 6.7430555555555545
482400.0 6.729166666666667
483000.0 6.694444444444444
